Summary:	This is a 31 grid;
Number of Dimensions:	1;
Coordinate System:	Spherical_1;
Ordered:	true;
Is Electric Field Defined:	false;
3	0.2
3.0025	0.5
3.01	1
3.0225	1.5
3.04	2
3.0625	2.5
3.09	3
3.1225	3.5
3.16	4
3.2025	4.5
3.25	5
3.3025	5.5
3.36	6
3.4225	6.5
3.49	7
3.5625	7.5
3.64	8
3.7225	8.5
3.81	9
3.9025	9.5
4	10
4.1025	10.5
4.21	11
4.3225	11.5
4.44	12
4.5625	12.5
4.69	13
4.8225	13.5
4.96	14
5.1025	14.5
5.25	15
